scan_id,3,fs_hz,250,total_samples,2500
1758,1808,1903,1775,1648,1744,1923,1959,1842,1985,2177,2462,2546,2907,2944,2585,1905,1680,1680,1837,1747,1862,1966,2082,1904,1845,1881,1989,1903,1806,1885,1974,1941,1770,1847,1946,1989,1789,1888,1986,2061,1830,1840,1892,1987,1815,1903,1973,2071,1897,1856,1911,2001,1857,1746,1844,1984,1958,1785,1875,1982,2001,1805,1898,1997,2041,1824,1910,1929,1987,1840,1927,1962,2106,1983,1895,1861,1915,1802,1734,1843,1959,1920,1808,1907,1983,1937,1682,1785,1962,2064,1790,1823,1899,1987,1757,1805,1813,1899,1771,1795,1840,1924,1777,1699,1818,1968,1906,1790,1811,1867,1868,1751,1865,1917,1867,1647,1830,1962,2101,1811,1767,1766,1871,1723,1843,1847,1859,1697,1642,1685,1802,1743,1614,1699,1807,1879,1659,1713,1883,2117,1968,1924,1882,1843,1606,1677,1744,1903,1712,1663,1710,1801,1639,1674,1633,1642,1437,1372,1473,1579,1661,1533,1600,1706,1760,1535,1634,1713,1771,1456,1513,1644,1793,1770,2112,2467,2778,2626,2256,1882,1664,1470,1477,1718,1794,1719,1516,1607,1698,1779,1546,1594,1679,1801,1564,1627,1689,1774,1663,1589,1553,1648,1639,1648,1617,1756,1684,1494,1641,1758,1757,1600,1727,1787,1786,1546,1655,1680,1714,1460,1648,1840,1937,1718,1750,1771,1903,1790,1787,1917,1954,1680,1514,1631,1756,1754,1499,1506,1616,1622,1339,1535,1632,1769,1712,1872,1958,2031,1808,1830,1790,1830,1611,1535,1655,1744,1605,1521,1642,1798,1771,1580,1686,1791,1741,1490,1601,1793,1952,1629,1667,1616,1649,1493,1744,1875,1887,1631,1596,1665,1831,1629,1503,1595,1687,1619,1547,1706,1693,1639,1561,1726,1830,1871,1621,1697,1746,1875,1761,1866,1919,2045,1809,1761,1812,1931,1757,1738,1828,1893,1840,1712,1757,1801,1713,1462,1577,1681,1765,1550,1625,1694,1850,1708,1762,1728,1696,1469,1505,1561,1673,1586,1533,1659,1854,1882,1869,2176,2503,2741,2623,2380,1939,1680,1416,1595,1762,1941,1692,1729,1772,1857,1636,1666,1791,1872,1648,1559,1642,1777,1731,1648,1703,1775,1744,1634,1801,1859,1803,1568,1698,1796,1918,1728,1787,1809,1941,1755,1766,1823,1936,1744,1743,1833,1922,1840,1750,1887,1990,1869,1755,1897,1953,1949,1745,1817,1870,1923,1741,1797,1840,1984,1818,1803,1807,1904,1755,1759,1838,1963,1825,1697,1776,1860,1842,1710,1779,1837,1845,1679,1813,1867,1913,1717,1851,1854,1886,1682,1750,1822,1946,1792,1748,1808,1913,1779,1696,1819,1936,1891,1759,1854,1911,1904,1739,1798,1875,1939,1733,1807,1860,1965,1745,1809,1878,2000,1847,1833,1846,1969,1874,1843,1950,2037,1964,1856,1953,2016,1991,1874,2000,2039,2037,1776,1837,1904,2019,1806,1786,1889,2041,1829,1795,1888,1978,1813,1762,1860,1968,1895,1812,1907,2010,2015,1903,2057,2215,2425,2522,2914,2989,2738,2112,1879,1841,1963,1837,1906,2007,2119,1946,1861,1919,2064,1923,1776,1859,1964,1923,1803,1878,1887,1951,1794,1881,1936,2005,1831,1919,1982,2081,1872,1836,1897,2032,1871,1869,1936,2064,1947,1844,1924,1968,1978,1872,1978,2061,2058,1869,1977,2005,2080,1888,1942,1949,2057,1869,1881,1906,2033,1874,1856,1937,2027,1853,1757,1867,2006,1955,1799,1854,1920,1913,1741,1862,1907,1936,1726,1840,1891,1970,1793,1822,1885,1967,1792,1816,1872,1957,1793,1743,1856,1991,1908,1793,1911,1970,1933,1762,1905,1957,1987,1781,1878,1882,1951,1777,1838,1869,1984,1805,1797,1876,2035,1888,1872,1963,2106,2014,1863,1941,1982,1939,1805,1951,2018,2013,1805,1829,1871,1947,1763,1814,1872,1940,1679,1718,1821,1936,1742,1670,1780,1872,1793,1697,1809,1894,1831,1716,1872,1939,2014,1931,2246,2595,2954,2699,2384,1977,1787,1522,1616,1701,1920,1813,1826,1883,1957,1794,1737,1869,1970,1866,1701,1785,1847,1872,1683,1787,1845,1929,1721,1797,1881,1979,1783,1808,1827,1930,1759,1794,1878,1999,1857,1799,1842,1963,1909,1791,1919,1999,2000,1810,1883,1947,2007,1817,1840,1873,1927,1724,1777,1875,1999,1812,1794,1829,1952,1835,1760,1837,1920,1807,1699,1839,1952,1898,1677,1735,1817,1936,1685,1722,1766,1887,1715,1769,1779,1846,1674,1699,1776,1904,1773,1721,1786,1920,1883,1713,1779,1908,1904,1697,1776,1847,1889,1705,1794,1830,1935,1728,1767,1787,1894,1717,1751,1856,1937,1770,1739,1863,2035,1943,1831,1894,1986,1911,1746,1858,1975,2005,1847,1919,1921,1941,1667,1682,1755,1885,1674,1699,1753,1863,1668,1663,1748,1872,1749,1702,1845,1936,1801,1617,1769,1901,1994,1871,2087,2387,2736,2765,2784,2427,2101,1673,1669,1775,1974,1819,1781,1840,1954,1841,1719,1767,1893,1813,1666,1749,1835,1878,1712,1729,1814,1910,1744,1819,1824,1909,1731,1811,1858,1979,1814,1796,1808,1968,1857,1801,1863,1965,1927,1807,1890,1959,1968,1825,1885,1914,1961,1779,1850,1886,2007,1807,1826,1861,1953,1763,1776,1823,1939,1754,1691,1798,1931,1855,1753,1852,1980,1945,1719,1798,1872,1906,1728,1796,1810,1862,1648,1731,1803,1926,1758,1776,1808,1919,1808,1792,1860,1943,1855,1783,1818,1885,1818,1709,1846,1922,1949,1786,1873,1875,1919,1697,1806,1921,2028,1792,1795,1873,2006,1809,1832,1939,2042,1951,1861,1921,1985,1909,1783,1902,2007,2003,1796,1889,1911,1919,1698,1765,1808,1919,1757,1798,1818,1889,1629,1668,1808,1904,1746,1673,1792,1897,1849,1743,1851,1988,2061,2000,2319,2643,2981,2720,2415,1995,1811,1493,1629,1852,2069,1857,1808,1838,1936,1798,1744,1840,1921,1810,1701,1803,1914,1915,1756,1821,1856,1870,1703,1819,1920,2002,1763,1799,1871,1974,1773,1783,1872,2021,1878,1829,1937,2098,1968,1838,1919,2015,1990,1872,1906,1925,1950,1767,1889,1941,2000,1760,1846,1931,2015,1788,1788,1858,2001,1846,1802,1819,1959,1872,1789,1870,1948,1875,1723,1837,1905,1904,1713,1785,1853,1949,1746,1811,1883,1978,1777,1779,1840,1980,1797,1777,1847,1938,1789,1792,1891,1984,1869,1753,1878,1968,1945,1729,1826,1915,1994,1786,1839,1904,1986,1786,1801,1845,1983,1845,1892,1905,2139,2001,1941,2000,2009,1856,1776,1890,1968,1929,1790,1879,1967,1968,1721,1757,1840,1964,1755,1726,1739,1844,1679,1685,1807,1968,1792,1742,1774,1887,1808,1712,1837,1998,2092,2155,2538,2897,3005,2530,2191,1932,1859,1710,1810,1916,2000,1785,1813,1887,1951,1745,1709,1771,1863,1815,1774,1819,1872,1845,1682,1785,1871,1891,1713,1838,1896,1924,1712,1815,1873,1974,1759,1787,1872,2019,1842,1801,1887,2017,1922,1813,1872,1973,1885,1795,1929,2001,1990,1771,1867,1895,1969,1767,1847,1936,2009,1770,1775,1795,1926,1763,1802,1895,2006,1834,1747,1845,1981,1866,1707,1789,1876,1862,1712,1813,1872,1904,1694,1808,1870,1968,1749,1783,1793,1898,1751,1786,1824,1981,1825,1758,1815,1936,1863,1760,1829,1872,1886,1762,1839,1917,1963,1753,1857,1891,1930,1706,1779,1837,2014,1872,1891,1952,2047,1876,1861,1943,2032,1893,1804,1907,2027,1973,1805,1863,1937,1969,1744,1790,1828,1904,1712,1790,1811,1899,1715,1747,1792,1906,1727,1739,1823,1905,1813,1735,1818,1936,1968,1958,2239,2575,2900,2829,2693,2283,2027,1680,1802,1939,2034,1814,1840,1863,1968,1799,1798,1857,1955,1821,1725,1799,1920,1872,1767,1843,1883,1868,1712,1822,1893,1942,1731,1819,1919,2014,1746,1823,1955,2089,1870,1840,1905,1984,1853,1832,1947,2036,1949,1856,1943,2035,1982,1821,1906,2001,2047,1789,1842,1915,1987,1771,1823,1870,1996,1829,1863,1920,2003,1837,1745,1915,2078,1878,1757,1866,1942,1897,1747,1835,1904,1913,1776,1879,1919,1968,1734,1821,1880,1963,1821,1875,1903,2017,1845,1791,1850,1970,1909,1824,1872,1975,1914,1764,1872,1949,1981,1826,1856,1902,1952,1772,1869,1917,1997,1778,1822,1895,2014,1885,1913,1999,2119,2005,1888,1954,2064,1997,1845,1936,2001,1983,1806,1919,1954,1958,1725,1823,1856,1949,1773,1808,1831,1946,1791,1776,1853,1961,1763,1726,1808,1892,1878,1840,1970,2091,2221,2294,2687,3042,2977,2272,1883,1748,1866,1742,1877,1975,2098,1835,1799,1842,1958,1806,1787,1843,1986,1899,1739,1799,1913,1874,1769,1870,1903,1885,1680,1818,1887,1970,1738,1775,1850,2017,1863,1878,1881,1978,1822,1810,1921,2059,1910,1803,1904,2005,1967,1823,1908,1956,1965,1763,1863,1902,1942,1758,1835,1871,1968,1772,1815,1898,1958,1786,1805,1890,1994,1846,1783,1859,1911,1863,1755,1824,1859,1854,1691,1789,1868,1912,1712,1794,1838,1936,1739,1775,1838,1985,1811,1809,1817,1925,1776,1737,1841,1932,1840,1711,1816,1930,1938,1744,1802,1846,1923,1795,1813,1793,1877,1727,1809,1859,1973,1808,1813,1910,2031,1905,1872,1931,2016,1947,1857,1919,1966,1951,1827,1904,1899,1899,1707,1750,1792,1963,1776,1812,1798,1858,1658,1702,1790,1918,1755,1708,1763,1830,1719,1696,1823,1961,1957,1901,2190,2486,2782,2707,2529,2186,1897,1508,1594,1739,1936,1826,1881,1907,1983,1808,1776,1825,1912,1822,1739,1819,1906,1837,1683,1808,1889,1872,1687,1776,1853,1918,1763,1842,1894,1997,1809,1840,1847,1938,1795,1823,1920,2036,1853,1778,1878,2000,1914,1805,1901,1967,1949,1779,1846,1917,1958,1774,1847,1866,1953,1743,1805,1879,1975,1783,1772,1872,1986,1857,1794,1839,1910,1821,1744,1817,1889,1845,1680,1772,1846,1919,1702,1783,1859,1930,1699,1755,1793,1952,1786,1817,1840,1931,1787,1773,1840,1925,1856,1757,1866,1968,1939,1785,1837,1853,1853,1717,1856,1861,1926,1707,1769,1839,1956,1766,1792,1871,1995,1826,1779,1886,2027,1891,1825,1936,2016,1942,1819,1920,1970,1987,1840,1906,1914,1955,1741,1823,1815,1893,1699,1761,1853,1997,1801,1725,1778,1902,1799,1723,1794,1902,1827,1681,1787,1883,1887,1775,1953,2180,2477,2512,2839,2871,2558,1920,1744,1759,1934,1840,1872,1906,2017,1861,1781,1845,1934,1833,1731,1883,1919,1857,1702,1823,1904,1895,1679,1779,1841,1951,1733,1777,1840,1952,1808,1837,1891,2026,1865,1854,1939,2040,1906,1791,1901,2003,1967,1814,1886,1947,1967,1759,1855,1910,1994,1810,1843,1879,2017,1790,1795,1872,2010,1799,1767,1853,1973,1885,1783,1859,1945,1899,1767,1903,1919,1894,1677,1786,1869,1936,1718,1779,1857,1959,1761,1840,1887,2014,1802,1758,1854,1969,1865,1776,1861,1927,1888,1816,1904,1931,1935,1809,1870,1873,1934,1770,1837,1904,1973,1757,1815,1889,1988,1817,1794,1841,1958,1792,1754,1859,1988,1888,1714,1838,1973,2001,1854,1953,2027,2065,1875,1936,1945,2032,1837,1885,1946,2063,1835,1835,1841,1937,1759,1728,1825,1939,1835,1697,1765,1925,1875,1686,1755,1805,1856,1701,1792,1852,1936,1819,2009,2200,2483,2545,2828,2880,2626,2031,1750,1776,1942,1941,1881,1915,1953,1915,1742,1872,1879,1856,1676,1808,1849,1920,1699,1759,1822,1959,1750,1808,1872,1957,1746,1782,1889,1969,1799,1723,1809,1945,1903,1776,1869,1956,1975,1821,1854,1930,2003,1815,1925,2032,2092,1812,1830,1878,2000,1808,1840,1917,2047,1840,1758,1849,1973,1895,1767,1833,1899,1904,1730,1808,1905,1973,1776,1854,1890,1985,1772,1811,1856,2003,1775,1794,1870,1968,1820,1766,1827,1917,1839,1761,1864,1936,1889,1743,1871,1921,1959,1804,1877,1904,1957,1756,1835,1899,2001,1824,1868,1904,1991,1842,1808,1871,1997,1856,1821,1897,1934,1874,1730,1843,1936,1987,1813,1893,1967,2039,1869,1951,1999,2156,1945,1936,1929,2061,1895,1905,1970,2066,1915,1821,1861,1925,1862,1742,1811,1903,1900,1734,1857,1879,1844,1681,1779,1842,1945,1731,1781,1841,1989,1856,1925,2091,2389,2491,2711,2864,2746,2233,1749,1693,1793,1906,1843,1945,1959,1969,1758,1904,1930,1988,1718,1793,1866,1971,1797,1803,1856,1975,1827,1756,1831,1936,1874,1792,1865,1931,1939,1814,1893,1933,2005,1840,1904,1934,2032,1841,1879,1955,2091,1841,1900,1971,2075,1931,1833,1931,2035,1931,1812,1877,1965,1907,1775,1859,1921,1955,1799,1912,1936,1975,1814,1927,1936,1995,1791,1813,1857,1973,1815,1794,1824,1983,1892,1776,1779,1879,1878,1767,1867,1920,1946,1738,1826,1886,1958,1751,1868,1941,2043,1843,1890,1922,2011,1827,1821,1872,1978,1856,1775,1815,1933,1873,1750,1857,1921,1872,1757,1911,2000,1996,1744,1891,1968,2081,1837,1875,1959,2106,1915,1908,1953,2063,1936,1927,2033,2065,1907,1748,1841,1974,1943,1742,1797,1872,1914,1751,1841,1856,1912,1680,1777,1856,1981,1749,1759,1831,1961,1811,1806,1936,2160,2243,2403,2757,2950,2593,1959,1749,1721,1798,1694,1867,1986,2103,1869,1879,1903,2018,1796,1795,1838,1951,1793,1821,1835,1937,1846,1737,1849,1949,1914,1776,1872,1951,1943,1730,1873,1951,1984,1774,1854,1938,2064,1872,1884,1894,1999,1874,1895,1987,2047,1891,1808,1913,2031,1935,1802,1935,1974,1905,1750,1853,1909,1981,1786,1871,1911,1995,1778,1840,1887,2010,1824,1817,1875,1967,1783,1775,1869,1984,1814,1653,1776,1883,1875,1763,1882,1918,1922,1725,1814,1879,1936,1734,1791,1848,1968,1759,1775,1878,2004,1840,1781,1823,1959,1859,1749,1824,1919,1872,1722,1821,1904,1936,1773,1850,1892,1931,1721,1856,1938,2039,1856,1890,1949,2094,1939,1887,1926,2015,1893,1861,1932,1984,1920,1776,1839,1913,1897,1687,1790,1856,1895,1689,1744,1823,1904,1712,1756,1793,1907,1733,1719,1776,1889,1777,1791,1914,2165,2342,2448,2790,2880,2599,2022,1775,1696,1826,1733,1885,1947,1998,1787,1853,1950,2013,1782,1789,1824,1939,1793,1744,1806,1895,1787,1664,1767,1889,1895,1735,1805,1886,1946,1805,1875,1904,1957,1776,1875,1935,2042,1867,1885,1935,2032,1882,1840,1906,1981,1871,1805,1879,1953,1923,1787,1824,1905,1984,1808,1874,1905,1966,1738,1820,1874,1975,1776,1802,1857,1968,1848,1825,1857,1915,1763,1665,1767,1829,1793,1708,1858,1893,1893,1680,1741,1841,1936,1759,1807,1834,1964,1765,1797,1862,1971,1807,1797,1851,1952,1808,1758,1875,1949,1935,1788,1801,1872,1888,1667,1808,1890,1963,1751,1787,1842,1954
